#freq[THz]  DOS(pure) DOS(imp)
    0.0000000   0.0000000e+00   0.0000000e+00
    0.1111111   0.0000000e+00   0.0000000e+00
    0.2222222   0.0000000e+00   0.0000000e+00
    0.3333333   0.0000000e+00   0.0000000e+00
    0.4444444   0.0000000e+00   0.0000000e+00
    0.5555556   0.0000000e+00   0.0000000e+00
    0.6666667   0.0000000e+00   0.0000000e+00
    0.7777778   0.0000000e+00   0.0000000e+00
    0.8888889   1.0194402e-04   1.0277673e-04
    1.0000000   2.8051786e-04   2.8281977e-04
    1.1111111   4.6232254e-04   4.6612278e-04
    1.2222222   6.3202782e-04   6.3718358e-04
    1.3333333   7.7737860e-04   7.8369429e-04
    1.4444444   9.0039896e-04   9.0767492e-04
    1.5555556   1.0548114e-03   1.0634089e-03
    1.6666667   1.2236568e-03   1.2336167e-03
    1.7777778   1.4146108e-03   1.4261463e-03
    1.8888889   1.6426113e-03   1.6561762e-03
    2.0000000   1.9018999e-03   1.9176456e-03
    2.1111111   2.1695327e-03   2.1876349e-03
    2.2222222   2.4957678e-03   2.5167695e-03
    2.3333333   2.8756699e-03   2.9001662e-03
    2.4444444   3.3125662e-03   3.3416813e-03
    2.5555556   3.9244346e-03   3.9607810e-03
    2.6666667   4.6307224e-03   4.6767111e-03
    2.7777778   5.4746069e-03   5.5349182e-03
    2.8888889   6.5963894e-03   6.6804480e-03
    3.0000000   8.4362572e-03   8.5736002e-03
    3.1111111   1.1268465e-02   1.1520890e-02
    3.2222222   1.6301279e-02   1.6502504e-02
    3.3333333   1.6672497e-02   1.6790085e-02
    3.4444444   1.7002078e-02   1.7066652e-02
    3.5555556   1.7222472e-02   1.7244701e-02
    3.6666667   1.7366795e-02   1.7350228e-02
    3.7777778   1.7184058e-02   1.7124836e-02
    3.8888889   1.6866567e-02   1.6781322e-02
    4.0000000   1.6861871e-02   1.6750203e-02
    4.1111111   1.6796231e-02   1.6660923e-02
    4.2222222   1.7557356e-02   1.7400388e-02
    4.3333333   1.9199579e-02   1.9062834e-02
    4.4444444   1.1928320e-02   1.2017244e-02
    4.5555556   6.7751905e-03   6.7418718e-03
    4.6666667   7.9806605e-03   7.9255859e-03
    4.7777778   1.0412672e-02   1.0313126e-02
    4.8888889   5.9999261e-03   5.9867548e-03
    5.0000000   7.0568269e-03   6.9962073e-03
    5.1111111   1.0782588e-02   1.0676033e-02
    5.2222222   1.1575970e-02   1.1518999e-02
    5.3333333   1.0157339e-02   1.0102564e-02
    5.4444444   1.2604411e-02   1.2543631e-02
    5.5555556   1.3288092e-02   1.3244804e-02
    5.6666667   1.4198291e-02   1.4193138e-02
    5.7777778   1.4658567e-02   1.4709779e-02
    5.8888889   1.1611877e-02   1.1705894e-02
    6.0000000   1.1181668e-02   1.1318264e-02
    6.1111111   1.3169906e-02   1.3357904e-02
    6.2222222   1.4286930e-02   1.4463955e-02
    6.3333333   1.5698938e-02   1.5764322e-02
    6.4444444   1.7123300e-02   1.7179904e-02
    6.5555556   1.7880948e-02   1.7969430e-02
    6.6666667   1.2198258e-02   1.2349771e-02
    6.7777778   8.8389312e-03   8.9294981e-03
    6.8888889   9.2982293e-03   9.3814476e-03
    7.0000000   1.0300117e-02   1.0478038e-02
    7.1111111   8.7154635e-03   8.8961789e-03
    7.2222222   7.6374417e-03   7.8099857e-03
    7.3333333   7.0576209e-03   7.2284779e-03
    7.4444444   7.4660365e-03   7.6567180e-03
    7.5555556   7.8838842e-03   7.9845806e-03
    7.6666667   3.8141983e-03   3.9074627e-03
    7.7777778   4.7021742e-03   5.1069270e-03
    7.8888889   1.2066574e-02   1.2895494e-02
    8.0000000   2.5386725e-02   2.5081983e-02
    8.1111111   2.8182550e-02   2.7637878e-02
    8.2222222   2.8860037e-02   2.8269979e-02
    8.3333333   2.5478004e-02   2.4914368e-02
    8.4444444   1.0281794e-02   1.0056773e-02
    8.5555556   3.1893080e-03   3.1246569e-03
    8.6666667   1.6664210e-04   1.6361366e-04
    8.7777778   3.5433722e-04   3.5059446e-04
    8.8888889   1.3296038e-03   1.3217897e-03
    9.0000000   2.7599227e-03   2.7467016e-03
    9.1111111   5.7768139e-03   5.7522413e-03
    9.2222222   6.6641539e-03   6.6394510e-03
    9.3333333   5.9175366e-03   5.8927783e-03
    9.4444444   5.9556579e-03   5.9228324e-03
    9.5555556   6.3542003e-03   6.3053636e-03
    9.6666667   6.2168872e-03   6.1574651e-03
    9.7777778   3.9223062e-03   3.8889954e-03
    9.8888889   2.8473634e-03   2.8277871e-03
   10.0000000   2.3088080e-03   2.2967500e-03
   10.1111111   1.7629054e-03   1.7551300e-03
   10.2222222   1.1412799e-03   1.1348138e-03
   10.3333333   5.6457996e-04   5.6121667e-04
   10.4444444   0.0000000e+00   0.0000000e+00
   10.5555556   0.0000000e+00   0.0000000e+00
   10.6666667   0.0000000e+00   0.0000000e+00
   10.7777778   0.0000000e+00   0.0000000e+00
   10.8888889   0.0000000e+00   0.0000000e+00
   11.0000000   0.0000000e+00   0.0000000e+00
